# wave A(l)/A(V) unc
1.00088e-01 5.79159e+00 2.89580e-01
1.00554e-01 5.73148e+00 2.86574e-01
1.01022e-01 5.67164e+00 2.83582e-01
1.01492e-01 5.61216e+00 2.80608e-01
1.01964e-01 5.55312e+00 2.77656e-01
1.02439e-01 5.49455e+00 2.74727e-01
1.02916e-01 5.43651e+00 2.71825e-01
1.03395e-01 5.37904e+00 2.68952e-01
1.03876e-01 5.32218e+00 2.66109e-01
1.04359e-01 5.26598e+00 2.63299e-01
1.04845e-01 5.21045e+00 2.60523e-01
1.05333e-01 5.15563e+00 2.57781e-01
1.05823e-01 5.10154e+00 2.55077e-01
1.06316e-01 5.04819e+00 2.52409e-01
1.06810e-01 4.99558e+00 2.49779e-01
1.07308e-01 4.94376e+00 2.47188e-01
1.07807e-01 4.89272e+00 2.44636e-01
1.08309e-01 4.84245e+00 2.42122e-01
1.08813e-01 4.79298e+00 2.39649e-01
1.09319e-01 4.74425e+00 2.37212e-01
1.09828e-01 4.69629e+00 2.34814e-01
1.10339e-01 4.64909e+00 2.32455e-01
1.10853e-01 4.60260e+00 2.30130e-01
1.11369e-01 4.55079e+00 2.27540e-01
1.11887e-01 4.49590e+00 2.24795e-01
1.12408e-01 4.44472e+00 2.22236e-01
1.12931e-01 4.39710e+00 2.19855e-01
1.13456e-01 4.35302e+00 2.17651e-01
1.13984e-01 4.31235e+00 2.15618e-01
1.14515e-01 4.27503e+00 2.13752e-01
1.15048e-01 4.23939e+00 2.11969e-01
1.15583e-01 4.19905e+00 2.09953e-01
1.16121e-01 4.15959e+00 2.07980e-01
1.16662e-01 4.12124e+00 2.06062e-01
1.17205e-01 4.08375e+00 2.04187e-01
1.17750e-01 4.04707e+00 2.02353e-01
1.18298e-01 4.01156e+00 2.00578e-01
1.18849e-01 3.97668e+00 1.98834e-01
1.19402e-01 3.94291e+00 1.97145e-01
1.19958e-01 3.91001e+00 1.95500e-01
1.20516e-01 3.87771e+00 1.93885e-01
1.21077e-01 3.84671e+00 1.92336e-01
1.21640e-01 3.81629e+00 1.90815e-01
1.22207e-01 3.78680e+00 1.89340e-01
1.22775e-01 3.75842e+00 1.87921e-01
1.23347e-01 3.73057e+00 1.86529e-01
1.23921e-01 3.70403e+00 1.85202e-01
1.24498e-01 3.67826e+00 1.83913e-01
1.25077e-01 3.65332e+00 1.82666e-01
1.25659e-01 3.63083e+00 1.81542e-01
1.26244e-01 3.60824e+00 1.80412e-01
1.26832e-01 3.58598e+00 1.79299e-01
1.27422e-01 3.56426e+00 1.78213e-01
1.28015e-01 3.54247e+00 1.77124e-01
1.28611e-01 3.52145e+00 1.76073e-01
1.29209e-01 3.50077e+00 1.75038e-01
1.29811e-01 3.47998e+00 1.73999e-01
1.30415e-01 3.46017e+00 1.73008e-01
1.31022e-01 3.44035e+00 1.72018e-01
1.31632e-01 3.42057e+00 1.71029e-01
1.32244e-01 3.40173e+00 1.70087e-01
1.32860e-01 3.38282e+00 1.69141e-01
1.33478e-01 3.36411e+00 1.68206e-01
1.34099e-01 3.34624e+00 1.67312e-01
1.34723e-01 3.32831e+00 1.66415e-01
1.35350e-01 3.31071e+00 1.65535e-01
1.35980e-01 3.29382e+00 1.64691e-01
1.36613e-01 3.27685e+00 1.63843e-01
1.37249e-01 3.26025e+00 1.63012e-01
1.37888e-01 3.24419e+00 1.62210e-01
1.38530e-01 3.22806e+00 1.61403e-01
1.39174e-01 3.21236e+00 1.60618e-01
1.39822e-01 3.19724e+00 1.59862e-01
1.40473e-01 3.18205e+00 1.59102e-01
1.41127e-01 3.16732e+00 1.58366e-01
1.41783e-01 3.15324e+00 1.57662e-01
1.42443e-01 3.13908e+00 1.56954e-01
1.43106e-01 3.12528e+00 1.56264e-01
1.43772e-01 3.11209e+00 1.55605e-01
1.44441e-01 3.09884e+00 1.54942e-01
1.45114e-01 3.08589e+00 1.54294e-01
1.45789e-01 3.07381e+00 1.53690e-01
1.46468e-01 3.06167e+00 1.53084e-01
1.47149e-01 3.04962e+00 1.52481e-01
1.47834e-01 3.03840e+00 1.51920e-01
1.48522e-01 3.02713e+00 1.51356e-01
1.49213e-01 3.01580e+00 1.50790e-01
1.49908e-01 3.00557e+00 1.50279e-01
1.50606e-01 2.99536e+00 1.49768e-01
1.51306e-01 2.98511e+00 1.49256e-01
1.52011e-01 2.97571e+00 1.48786e-01
1.52718e-01 2.96666e+00 1.48333e-01
1.53429e-01 2.95755e+00 1.47878e-01
1.54143e-01 2.94888e+00 1.47444e-01
1.54860e-01 2.94083e+00 1.47042e-01
1.55581e-01 2.93275e+00 1.46637e-01
1.56305e-01 2.92471e+00 1.46236e-01
1.57033e-01 2.91775e+00 1.45888e-01
1.57764e-01 2.91076e+00 1.45538e-01
1.58498e-01 2.90373e+00 1.45187e-01
1.59236e-01 2.89753e+00 1.44877e-01
1.59977e-01 2.89171e+00 1.44585e-01
1.60721e-01 2.88585e+00 1.44292e-01
1.61469e-01 2.88030e+00 1.44015e-01
1.62221e-01 2.87581e+00 1.43790e-01
1.62976e-01 2.87129e+00 1.43564e-01
1.63734e-01 2.86675e+00 1.43337e-01
1.64496e-01 2.86311e+00 1.43155e-01
1.65262e-01 2.85979e+00 1.42989e-01
1.66031e-01 2.85645e+00 1.42822e-01
1.66804e-01 2.85325e+00 1.42662e-01
1.67580e-01 2.85078e+00 1.42539e-01
1.68360e-01 2.84830e+00 1.42415e-01
1.69144e-01 2.84580e+00 1.42290e-01
1.69931e-01 2.84388e+00 1.42194e-01
1.70722e-01 2.84243e+00 1.42121e-01
1.71516e-01 2.84096e+00 1.42048e-01
1.72315e-01 2.83948e+00 1.41974e-01
1.73116e-01 2.83922e+00 1.41961e-01
1.73922e-01 2.83912e+00 1.41956e-01
1.74732e-01 2.83902e+00 1.41951e-01
1.75545e-01 2.83911e+00 1.41956e-01
1.76362e-01 2.84042e+00 1.42021e-01
1.77183e-01 2.84175e+00 1.42087e-01
1.78007e-01 2.84307e+00 1.42153e-01
1.78836e-01 2.84503e+00 1.42251e-01
1.79668e-01 2.84835e+00 1.42417e-01
1.80504e-01 2.85168e+00 1.42584e-01
1.81344e-01 2.85503e+00 1.42752e-01
1.82188e-01 2.85945e+00 1.42973e-01
1.83036e-01 2.86525e+00 1.43262e-01
1.83888e-01 2.87107e+00 1.43553e-01
1.84744e-01 2.87692e+00 1.43846e-01
1.85604e-01 2.88424e+00 1.44212e-01
1.86468e-01 2.89314e+00 1.44657e-01
1.87336e-01 2.90207e+00 1.45103e-01
1.88208e-01 2.91104e+00 1.45552e-01
1.89083e-01 2.92182e+00 1.46091e-01
1.89963e-01 2.93473e+00 1.46736e-01
1.90848e-01 2.94770e+00 1.47385e-01
1.91736e-01 2.96073e+00 1.48036e-01
1.92628e-01 2.97541e+00 1.48770e-01
1.93525e-01 2.99302e+00 1.49651e-01
1.94425e-01 3.01071e+00 1.50536e-01
1.95330e-01 3.02849e+00 1.51425e-01
1.96239e-01 3.04722e+00 1.52361e-01
1.97153e-01 3.07008e+00 1.53504e-01
1.98070e-01 3.09305e+00 1.54652e-01
1.98992e-01 3.11613e+00 1.55806e-01
1.99918e-01 3.13931e+00 1.56965e-01
2.00849e-01 3.16655e+00 1.58328e-01
2.01784e-01 3.19431e+00 1.59715e-01
2.02723e-01 3.22219e+00 1.61110e-01
2.03666e-01 3.25020e+00 1.62510e-01
2.04614e-01 3.27888e+00 1.63944e-01
2.05566e-01 3.30812e+00 1.65406e-01
2.06523e-01 3.33749e+00 1.66875e-01
2.07484e-01 3.36699e+00 1.68349e-01
2.08450e-01 3.39587e+00 1.69794e-01
2.09420e-01 3.41917e+00 1.70958e-01
2.10395e-01 3.44256e+00 1.72128e-01
2.11374e-01 3.46609e+00 1.73305e-01
2.12358e-01 3.48969e+00 1.74484e-01
2.13346e-01 3.50365e+00 1.75182e-01
2.14339e-01 3.51074e+00 1.75537e-01
2.15337e-01 3.51790e+00 1.75895e-01
2.16339e-01 3.52507e+00 1.76253e-01
2.17346e-01 3.53226e+00 1.76613e-01
2.18357e-01 3.51814e+00 1.75907e-01
2.19374e-01 3.50294e+00 1.75147e-01
2.20395e-01 3.48765e+00 1.74382e-01
2.21420e-01 3.47232e+00 1.73616e-01
2.22451e-01 3.45294e+00 1.72647e-01
2.23486e-01 3.41964e+00 1.70982e-01
2.24526e-01 3.38617e+00 1.69308e-01
2.25571e-01 3.35253e+00 1.67626e-01
2.26621e-01 3.31874e+00 1.65937e-01
2.27676e-01 3.28236e+00 1.64118e-01
2.28735e-01 3.24185e+00 1.62092e-01
2.29800e-01 3.20114e+00 1.60057e-01
2.30870e-01 3.16025e+00 1.58013e-01
2.31944e-01 3.11917e+00 1.55958e-01
2.33024e-01 3.07906e+00 1.53953e-01
2.34108e-01 3.04032e+00 1.52016e-01
2.35198e-01 3.00141e+00 1.50070e-01
2.36292e-01 2.96231e+00 1.48115e-01
2.37392e-01 2.92303e+00 1.46151e-01
2.38497e-01 2.88605e+00 1.44303e-01
2.39607e-01 2.85326e+00 1.42663e-01
2.40722e-01 2.82033e+00 1.41016e-01
2.41842e-01 2.78724e+00 1.39362e-01
2.42968e-01 2.75399e+00 1.37700e-01
2.44099e-01 2.72311e+00 1.36156e-01
2.45235e-01 2.70413e+00 1.35207e-01
2.46376e-01 2.68506e+00 1.34253e-01
2.47523e-01 2.66591e+00 1.33295e-01
2.48675e-01 2.64666e+00 1.32333e-01
2.49832e-01 2.62733e+00 1.31366e-01
2.50995e-01 2.60790e+00 1.30395e-01
2.52163e-01 2.58839e+00 1.29419e-01
2.53337e-01 2.56878e+00 1.28439e-01
2.54516e-01 2.54908e+00 1.27454e-01
2.55701e-01 2.52930e+00 1.26465e-01
2.56891e-01 2.50942e+00 1.25471e-01
2.58086e-01 2.48944e+00 1.24472e-01
2.59287e-01 2.46937e+00 1.23469e-01
2.60494e-01 2.44922e+00 1.22461e-01
2.61706e-01 2.42896e+00 1.21448e-01
2.62925e-01 2.40861e+00 1.20431e-01
2.64148e-01 2.38817e+00 1.19408e-01
2.65378e-01 2.36763e+00 1.18382e-01
2.66613e-01 2.34700e+00 1.17350e-01
2.67854e-01 2.32627e+00 1.16314e-01
2.69100e-01 2.30545e+00 1.15272e-01
2.70353e-01 2.28501e+00 1.14250e-01
2.71611e-01 2.27145e+00 1.13572e-01
2.72875e-01 2.25783e+00 1.12891e-01
2.74145e-01 2.24414e+00 1.12207e-01
2.75421e-01 2.23039e+00 1.11519e-01
2.76703e-01 2.21658e+00 1.10829e-01
2.77991e-01 2.20305e+00 1.10153e-01
2.79284e-01 2.19127e+00 1.09563e-01
2.80584e-01 2.17943e+00 1.08972e-01
2.81890e-01 2.16754e+00 1.08377e-01
2.83202e-01 2.15559e+00 1.07779e-01
2.84520e-01 2.14359e+00 1.07179e-01
2.85844e-01 2.13170e+00 1.06585e-01
2.87175e-01 2.12128e+00 1.06064e-01
2.88511e-01 2.11081e+00 1.05540e-01
2.89854e-01 2.10029e+00 1.05015e-01
2.91203e-01 2.08973e+00 1.04487e-01
2.92558e-01 2.07912e+00 1.03956e-01
2.93920e-01 2.06846e+00 1.03423e-01
2.95288e-01 2.05912e+00 1.02956e-01
2.96662e-01 2.04997e+00 1.02498e-01
2.98043e-01 2.04078e+00 1.02039e-01
2.99430e-01 2.03154e+00 1.01577e-01
3.00824e-01 2.02226e+00 1.01113e-01
3.02224e-01 2.01294e+00 1.00647e-01
3.03630e-01 2.00400e+00 1.00200e-01
3.05044e-01 1.99557e+00 9.97786e-02
3.06463e-01 1.98711e+00 9.93556e-02
3.07890e-01 1.97861e+00 9.89303e-02
3.09323e-01 1.97006e+00 9.85032e-02
3.10762e-01 1.96148e+00 9.80740e-02
3.12209e-01 1.95286e+00 9.76429e-02
3.13662e-01 1.94474e+00 9.72369e-02
3.15121e-01 1.93672e+00 9.68361e-02
3.16588e-01 1.92866e+00 9.64331e-02
3.18061e-01 1.92057e+00 9.60285e-02
3.19542e-01 1.91244e+00 9.56218e-02
3.21029e-01 1.90427e+00 9.52135e-02
3.22523e-01 1.89606e+00 9.48030e-02
3.24024e-01 1.88792e+00 9.43961e-02
3.25532e-01 1.87975e+00 9.39876e-02
3.27047e-01 1.87155e+00 9.35773e-02
3.28569e-01 1.86330e+00 9.31649e-02
3.30099e-01 1.85501e+00 9.27507e-02
3.31635e-01 1.84669e+00 9.23345e-02
3.33178e-01 1.83833e+00 9.19165e-02
3.34729e-01 1.83021e+00 9.15103e-02
3.36287e-01 1.82208e+00 9.11039e-02
3.37852e-01 1.81391e+00 9.06953e-02
3.39425e-01 1.80635e+00 9.03175e-02
3.41004e-01 1.80042e+00 9.00209e-02
3.42591e-01 1.79446e+00 8.97232e-02
3.44186e-01 1.78848e+00 8.94240e-02
3.45788e-01 1.78156e+00 8.90781e-02
3.47397e-01 1.77400e+00 8.87002e-02
3.49014e-01 1.76641e+00 8.83206e-02
3.50638e-01 1.75879e+00 8.79393e-02
3.52270e-01 1.75151e+00 8.75753e-02
3.53910e-01 1.74426e+00 8.72131e-02
3.55557e-01 1.73698e+00 8.68491e-02
3.57212e-01 1.72972e+00 8.64860e-02
3.58874e-01 1.72355e+00 8.61776e-02
3.60545e-01 1.71735e+00 8.58676e-02
3.62223e-01 1.71113e+00 8.55564e-02
3.63908e-01 1.70455e+00 8.52273e-02
3.65602e-01 1.69623e+00 8.48113e-02
3.67304e-01 1.68787e+00 8.43933e-02
3.69013e-01 1.67947e+00 8.39734e-02
3.70731e-01 1.67143e+00 8.35714e-02
3.72456e-01 1.66486e+00 8.32429e-02
3.74189e-01 1.65826e+00 8.29129e-02
3.75931e-01 1.65163e+00 8.25814e-02
3.77681e-01 1.64488e+00 8.22442e-02
3.79438e-01 1.63774e+00 8.18870e-02
3.81204e-01 1.63056e+00 8.15282e-02
3.82979e-01 1.62336e+00 8.11678e-02
3.84761e-01 1.61621e+00 8.08106e-02
3.86552e-01 1.61015e+00 8.05074e-02
3.88351e-01 1.60406e+00 8.02030e-02
3.90158e-01 1.59794e+00 7.98971e-02
3.91974e-01 1.59179e+00 7.95896e-02
3.93798e-01 1.58673e+00 7.93366e-02
3.95631e-01 1.58178e+00 7.90888e-02
3.97473e-01 1.57679e+00 7.88397e-02
3.99322e-01 1.57179e+00 7.85896e-02
4.01181e-01 1.56595e+00 7.82977e-02
4.03048e-01 1.55962e+00 7.79809e-02
4.04924e-01 1.55326e+00 7.76628e-02
4.06809e-01 1.54687e+00 7.73433e-02
4.08702e-01 1.54027e+00 7.70133e-02
4.10604e-01 1.53319e+00 7.66593e-02
4.12515e-01 1.52607e+00 7.63037e-02
4.14435e-01 1.51893e+00 7.59466e-02
4.16364e-01 1.51175e+00 7.55876e-02
4.18302e-01 1.50612e+00 7.53058e-02
4.20249e-01 1.50075e+00 7.50374e-02
4.22204e-01 1.49535e+00 7.47676e-02
4.24169e-01 1.48993e+00 7.44967e-02
4.26144e-01 1.48453e+00 7.42267e-02
4.28127e-01 1.47921e+00 7.39607e-02
4.30119e-01 1.47387e+00 7.36936e-02
4.32121e-01 1.46850e+00 7.34250e-02
4.34132e-01 1.46311e+00 7.31554e-02
4.36153e-01 1.45717e+00 7.28583e-02
4.38183e-01 1.45095e+00 7.25474e-02
4.40222e-01 1.44446e+00 7.22232e-02
4.42271e-01 1.43643e+00 7.18217e-02
4.44330e-01 1.42837e+00 7.14186e-02
4.46398e-01 1.42006e+00 7.10032e-02
4.48475e-01 1.41171e+00 7.05854e-02
4.50562e-01 1.40331e+00 7.01655e-02
4.52659e-01 1.39488e+00 6.97438e-02
4.54766e-01 1.38658e+00 6.93291e-02
4.56883e-01 1.37981e+00 6.89907e-02
4.59009e-01 1.37302e+00 6.86508e-02
4.61145e-01 1.36618e+00 6.83092e-02
4.63292e-01 1.35932e+00 6.79660e-02
4.65448e-01 1.35264e+00 6.76318e-02
4.67614e-01 1.34708e+00 6.73540e-02
4.69790e-01 1.34150e+00 6.70749e-02
4.71977e-01 1.33589e+00 6.67944e-02
4.74174e-01 1.33025e+00 6.65127e-02
4.76381e-01 1.32455e+00 6.62277e-02
4.78598e-01 1.31845e+00 6.59223e-02
4.80825e-01 1.31231e+00 6.56154e-02
4.83063e-01 1.30614e+00 6.53071e-02
4.85311e-01 1.29995e+00 6.49974e-02
4.87570e-01 1.29372e+00 6.46861e-02
4.89839e-01 1.28480e+00 6.42399e-02
4.92119e-01 1.27552e+00 6.37760e-02
4.94409e-01 1.26620e+00 6.33101e-02
4.96710e-01 1.25684e+00 6.28419e-02
4.99022e-01 1.24743e+00 6.23716e-02
5.01345e-01 1.23896e+00 6.19482e-02
5.03678e-01 1.23118e+00 6.15588e-02
5.06022e-01 1.22335e+00 6.11676e-02
5.08377e-01 1.21549e+00 6.07746e-02
5.10743e-01 1.20759e+00 6.03797e-02
5.13120e-01 1.19961e+00 5.99807e-02
5.15509e-01 1.19128e+00 5.95640e-02
5.17908e-01 1.18291e+00 5.91453e-02
5.20318e-01 1.17449e+00 5.87246e-02
5.22740e-01 1.16604e+00 5.83018e-02
5.25173e-01 1.15755e+00 5.78773e-02
5.27617e-01 1.14974e+00 5.74870e-02
5.30073e-01 1.14254e+00 5.71270e-02
5.32540e-01 1.13530e+00 5.67652e-02
5.35018e-01 1.12804e+00 5.64019e-02
5.37508e-01 1.12074e+00 5.60368e-02
5.40010e-01 1.11340e+00 5.56699e-02
5.42523e-01 1.10645e+00 5.53225e-02
5.45048e-01 1.09958e+00 5.49789e-02
5.47585e-01 1.09267e+00 5.46337e-02
5.50134e-01 1.08561e+00 5.42804e-02
5.52694e-01 1.07898e+00 5.39492e-02
5.55266e-01 1.07237e+00 5.36187e-02
5.57851e-01 1.06578e+00 5.32889e-02
5.60447e-01 1.05920e+00 5.29599e-02
5.63055e-01 1.05263e+00 5.26315e-02
5.65676e-01 1.04608e+00 5.23038e-02
5.68309e-01 1.03954e+00 5.19770e-02
5.70954e-01 1.03302e+00 5.16508e-02
5.73611e-01 1.02651e+00 5.13257e-02
5.76281e-01 1.02002e+00 5.10012e-02
5.78963e-01 1.01355e+00 5.06777e-02
5.81657e-01 1.00710e+00 5.03550e-02
5.84364e-01 1.00067e+00 5.00334e-02
5.87084e-01 9.94252e-01 4.97126e-02
5.89816e-01 9.87856e-01 4.93928e-02
5.92562e-01 9.81483e-01 4.90741e-02
5.95319e-01 9.75127e-01 4.87564e-02
5.98090e-01 9.68794e-01 4.84397e-02
6.00874e-01 9.62482e-01 4.81241e-02
6.03670e-01 9.56193e-01 4.78096e-02
6.06480e-01 9.49927e-01 4.74964e-02
6.09303e-01 9.43685e-01 4.71843e-02
6.12138e-01 9.37466e-01 4.68733e-02
6.14987e-01 9.31275e-01 4.65637e-02
6.17850e-01 9.25106e-01 4.62553e-02
6.20725e-01 9.18964e-01 4.59482e-02
6.23614e-01 9.12849e-01 4.56425e-02
6.26516e-01 9.06761e-01 4.53381e-02
6.29432e-01 9.00703e-01 4.50351e-02
6.32362e-01 8.94672e-01 4.47336e-02
6.35305e-01 8.88667e-01 4.44334e-02
6.38262e-01 8.82693e-01 4.41346e-02
6.41232e-01 8.76745e-01 4.38373e-02
6.44217e-01 8.70828e-01 4.35414e-02
6.47215e-01 8.64937e-01 4.32468e-02
6.50227e-01 8.59073e-01 4.29536e-02
6.53254e-01 8.53239e-01 4.26620e-02
6.56294e-01 8.47429e-01 4.23714e-02
6.59348e-01 8.41648e-01 4.20824e-02
6.62417e-01 8.35895e-01 4.17947e-02
6.65500e-01 8.30171e-01 4.15086e-02
6.68597e-01 8.24472e-01 4.12236e-02
6.71709e-01 8.18798e-01 4.09399e-02
6.74835e-01 8.13152e-01 4.06576e-02
6.77976e-01 8.07529e-01 4.03764e-02
6.81132e-01 8.01936e-01 4.00968e-02
6.84302e-01 7.96367e-01 3.98183e-02
6.87487e-01 7.90824e-01 3.95412e-02
6.90686e-01 7.85305e-01 3.92652e-02
6.93901e-01 7.79809e-01 3.89905e-02
6.97130e-01 7.74340e-01 3.87170e-02
7.00375e-01 7.68891e-01 3.84446e-02
7.03635e-01 7.63469e-01 3.81734e-02
7.06909e-01 7.58070e-01 3.79035e-02
7.10199e-01 7.52692e-01 3.76346e-02
7.13505e-01 7.47336e-01 3.73668e-02
7.16826e-01 7.42001e-01 3.71001e-02
7.20162e-01 7.36690e-01 3.68345e-02
7.23514e-01 7.31398e-01 3.65699e-02
7.26881e-01 7.26126e-01 3.63063e-02
7.30264e-01 7.20872e-01 3.60436e-02
7.33663e-01 7.15640e-01 3.57820e-02
7.37077e-01 7.10426e-01 3.55213e-02
7.40508e-01 7.05228e-01 3.52614e-02
7.43954e-01 7.00047e-01 3.50023e-02
7.47417e-01 6.94882e-01 3.47441e-02
7.50895e-01 6.89731e-01 3.44866e-02
7.54390e-01 6.84597e-01 3.42298e-02
7.57901e-01 6.79476e-01 3.39738e-02
7.61428e-01 6.74368e-01 3.37184e-02
7.64972e-01 6.69274e-01 3.34637e-02
7.68533e-01 6.64193e-01 3.32097e-02
7.72109e-01 6.59129e-01 3.29565e-02
7.75703e-01 6.54075e-01 3.27038e-02
7.79313e-01 6.49035e-01 3.24517e-02
7.82940e-01 6.44011e-01 3.22005e-02
7.86584e-01 6.39000e-01 3.19500e-02
7.90245e-01 6.34003e-01 3.17002e-02
7.93923e-01 6.29020e-01 3.14510e-02
7.97618e-01 6.24049e-01 3.12025e-02
8.01330e-01 6.19096e-01 3.09548e-02
8.05060e-01 6.14152e-01 3.07076e-02
8.08807e-01 6.09226e-01 3.04613e-02
8.12571e-01 6.04315e-01 3.02158e-02
8.16353e-01 5.99415e-01 2.99708e-02
8.20152e-01 5.94532e-01 2.97266e-02
8.23969e-01 5.89662e-01 2.94831e-02
8.27804e-01 5.84809e-01 2.92405e-02
8.31657e-01 5.79969e-01 2.89985e-02
8.35528e-01 5.75143e-01 2.87571e-02
8.39416e-01 5.70330e-01 2.85165e-02
8.43323e-01 5.65534e-01 2.82767e-02
8.47248e-01 5.60751e-01 2.80375e-02
8.51191e-01 5.55981e-01 2.77991e-02
8.55153e-01 5.51229e-01 2.75614e-02
8.59133e-01 5.46489e-01 2.73245e-02
8.63131e-01 5.41763e-01 2.70882e-02
8.67148e-01 5.37051e-01 2.68525e-02
8.71184e-01 5.32355e-01 2.66177e-02
8.75239e-01 5.27672e-01 2.63836e-02
8.79312e-01 5.23003e-01 2.61502e-02
8.83405e-01 5.18354e-01 2.59177e-02
8.87516e-01 5.13722e-01 2.56861e-02
8.91647e-01 5.09110e-01 2.54555e-02
8.95797e-01 5.04518e-01 2.52259e-02
8.99966e-01 4.99946e-01 2.49973e-02
9.04155e-01 4.95401e-01 2.47700e-02
9.08363e-01 4.90875e-01 2.45438e-02
9.12590e-01 4.86377e-01 2.43188e-02
9.16838e-01 4.81905e-01 2.40953e-02
9.21105e-01 4.77461e-01 2.38730e-02
9.25392e-01 4.73046e-01 2.36523e-02
9.29699e-01 4.68661e-01 2.34331e-02
9.34026e-01 4.64310e-01 2.32155e-02
9.38373e-01 4.59993e-01 2.29996e-02
9.42740e-01 4.55712e-01 2.27856e-02
9.47128e-01 4.51468e-01 2.25734e-02
9.51536e-01 4.47261e-01 2.23630e-02
9.55964e-01 4.43090e-01 2.21545e-02
9.60414e-01 4.38967e-01 2.19483e-02
9.64884e-01 4.34883e-01 2.17442e-02
9.69374e-01 4.30843e-01 2.15422e-02
9.73886e-01 4.26850e-01 2.13425e-02
9.78419e-01 4.22901e-01 2.11451e-02
9.82972e-01 4.18995e-01 2.09498e-02
9.87547e-01 4.15136e-01 2.07568e-02
9.92143e-01 4.11317e-01 2.05659e-02
9.96761e-01 4.07545e-01 2.03772e-02
1.00140e+00 4.03813e-01 2.01907e-02
1.00606e+00 4.00128e-01 2.00064e-02
1.01074e+00 3.96486e-01 1.98243e-02
1.01545e+00 3.92885e-01 1.96443e-02
1.02017e+00 3.89331e-01 1.94665e-02
1.02492e+00 3.85816e-01 1.92908e-02
1.02969e+00 3.82345e-01 1.91173e-02
1.03448e+00 3.78918e-01 1.89459e-02
1.03930e+00 3.75531e-01 1.87765e-02
1.04414e+00 3.72187e-01 1.86094e-02
1.04900e+00 3.68884e-01 1.84442e-02
1.05388e+00 3.65620e-01 1.82810e-02
1.05878e+00 3.62401e-01 1.81200e-02
1.06371e+00 3.59218e-01 1.79609e-02
1.06866e+00 3.56078e-01 1.78039e-02
1.07363e+00 3.52975e-01 1.76488e-02
1.07863e+00 3.49913e-01 1.74956e-02
1.08365e+00 3.46890e-01 1.73445e-02
1.08869e+00 3.43902e-01 1.71951e-02
1.09376e+00 3.40956e-01 1.70478e-02
1.09885e+00 3.38044e-01 1.69022e-02
1.10397e+00 3.35169e-01 1.67585e-02
1.10910e+00 3.32330e-01 1.66165e-02
1.11427e+00 3.29527e-01 1.64763e-02
1.11945e+00 3.26757e-01 1.63379e-02
1.12466e+00 3.24022e-01 1.62011e-02
1.12990e+00 3.21320e-01 1.60660e-02
1.13516e+00 3.18650e-01 1.59325e-02
1.14044e+00 3.16012e-01 1.58006e-02
1.14575e+00 3.13405e-01 1.56702e-02
1.15108e+00 3.10827e-01 1.55414e-02
1.15644e+00 3.08279e-01 1.54139e-02
1.16182e+00 3.05759e-01 1.52879e-02
1.16723e+00 3.03266e-01 1.51633e-02
1.17266e+00 3.00799e-01 1.50400e-02
1.17812e+00 2.98358e-01 1.49179e-02
1.18360e+00 2.95941e-01 1.47970e-02
1.18911e+00 2.93547e-01 1.46773e-02
1.19464e+00 2.91174e-01 1.45587e-02
1.20020e+00 2.88823e-01 1.44411e-02
1.20579e+00 2.86491e-01 1.43246e-02
1.21140e+00 2.84178e-01 1.42089e-02
1.21704e+00 2.81882e-01 1.40941e-02
1.22270e+00 2.79602e-01 1.39801e-02
1.22839e+00 2.77335e-01 1.38668e-02
1.23411e+00 2.75082e-01 1.37541e-02
1.23985e+00 2.72841e-01 1.36420e-02
1.24562e+00 2.70611e-01 1.35305e-02
1.25142e+00 2.68390e-01 1.34195e-02
1.25725e+00 2.66182e-01 1.33091e-02
1.26310e+00 2.63984e-01 1.31992e-02
1.26898e+00 2.61797e-01 1.30898e-02
1.27488e+00 2.59622e-01 1.29811e-02
1.28082e+00 2.57457e-01 1.28729e-02
1.28678e+00 2.55305e-01 1.27652e-02
1.29277e+00 2.53164e-01 1.26582e-02
1.29878e+00 2.51035e-01 1.25518e-02
1.30483e+00 2.48918e-01 1.24459e-02
